Time (s),Lat (deg),Lon (deg),Geoaltitude (ft),TAS (kn),Mach,Static Temperature (K),Dust (small),Dust (medium),Dust (large)
0,35.416,51.1559,3196.032,108.855385620204,0.167210769196882,279.15,2.38905511651456e-09,5.27687193246407e-09,7.3410005894282e-09
4,35.4165,51.1532,3195.048,122.462308822729,0.188179539045914,278.95,2.38967402863947e-09,5.27823498856562e-09,7.34242363000042e-09
8,35.4173,51.1505,3197.016,136.069232025254,0.209088376717682,278.95,2.38843623658611e-09,5.27550894724368e-09,7.33957761970422e-09
12,35.4184,51.1474,3197.016,151.620001399569,0.233109575112913,278.65,2.38843623658611e-09,5.27550894724368e-09,7.33957761970422e-09
16,35.4192,51.1439,3199.968,163.283078430305,0.250906052061218,278.95,2.38657978997945e-09,5.27142041686954e-09,7.33530913562162e-09
20,35.4201,51.1405,3158.968,169.114616945673,0.259773873573727,279.15,2.41238970665661e-09,5.32826265967308e-09,7.39465070895062e-09
24,35.4213,51.1367,3204.232,173.002309289252,0.265840936112481,278.95,2.38389876755788e-09,5.26551588810765e-09,7.3291446732019e-09
28,35.4222,51.1328,3380.04,174.946155461041,0.268827912922734,278.95,2.27388449835534e-09,5.02322639063388e-09,7.07613737253613e-09
32,35.423,51.1292,3507.96,176.890001632831,0.271814889732986,278.95,2.1944827705882e-09,4.84835577175093e-09,6.89346769115705e-09
36,35.4244,51.125,3650.968,174.946155461041,0.268827912922734,278.95,2.10635988308941e-09,4.65427754645773e-09,6.69066985486265e-09
40,35.4252,51.1214,3796.928,173.002309289252,0.265840936112481,278.95,2.00928377447571e-09,4.44100607866177e-09,6.44501013263883e-09
44,35.4264,51.1178,3938.952,174.946155461041,0.268972586668746,278.65,1.90888166904498e-09,4.22083858906461e-09,6.17349705629627e-09
48,35.4273,51.1137,4073.76,178.83384780462,0.274703406537734,279.15,1.81430365108053e-09,4.01344132894343e-09,5.91770013046442e-09
52,35.4282,51.1096,4209.88,180.777693976409,0.278088077382821,278.35,1.7195194606005e-09,3.80559080109772e-09,5.66131205328954e-09
56,35.429,51.1058,4370.6,182.721540148199,0.280926923854024,278.65,1.60852964403562e-09,3.56220174077256e-09,5.36104458869727e-09
60,35.4299,51.1019,4540.832,182.721540148199,0.281179306371779,278.15,1.49206225125023e-09,3.30679913098921e-09,5.04590626026835e-09
64,35.4313,51.0981,4712.704,182.721540148199,0.281280450010436,277.95,1.35473126907868e-09,3.00378318883622e-09,4.62377110421215e-09
68,35.433,51.0947,4889.496,184.665386319988,0.284272795223313,277.95,1.21355468346197e-09,2.69218224753086e-09,4.1871015373825e-09
72,35.4349,51.0916,5059.4,182.721540148199,0.281280450010436,277.95,1.0792258708365e-09,2.39569478683366e-09,3.77158949953217e-09
76,35.4371,51.0888,5230.616,180.777693976409,0.278588956890602,277.35,9.45195723451255e-10,2.09986580308776e-09,3.35697813617912e-09
80,35.4395,51.0861,5382.48,178.83384780462,0.275692797122285,277.15,8.27436866327354e-10,1.83994990556386e-09,2.99268102750977e-09
84,35.4417,51.0837,5517.288,176.890001632831,0.272794582545792,276.95,7.36238170555774e-10,1.63851191702413e-09,2.7019014034926e-09
88,35.4438,51.0808,5645.208,176.890001632831,0.273090562288418,276.35,6.81025330599447e-10,1.51615282653239e-09,2.50168051646308e-09
92,35.446,51.078,5771.488,174.946155461041,0.270187354779806,276.15,6.26917126845278e-10,1.39624155735203e-09,2.30546448927445e-09
96,35.4481,51.0751,5867.264,173.002309289252,0.267282079321562,275.95,5.86142096784272e-10,1.30587831230368e-09,2.15759877629703e-09
100,35.4501,51.0722,5946.312,174.946155461041,0.270285248752142,275.95,5.52659549820051e-10,1.23167615538941e-09,2.0361779633782e-09
104,35.452,51.0693,6016.176,176.890001632831,0.273437092643723,275.65,5.23195685685728e-10,1.16637991319718e-09,1.929330158047e-09
108,35.4543,51.0662,6078.168,180.777693976409,0.279446699075453,275.65,4.9715272916305e-10,1.10866485129961e-09,1.83488769435862e-09
112,35.4563,51.0629,6144.096,182.721540148199,0.282451502291318,275.65,4.69560494667076e-10,1.04751630483707e-09,1.73482665996198e-09
116,35.4584,51.0598,6216.256,184.665386319988,0.2856117686968,275.35,4.39483205139364e-10,9.80860437781942e-10,1.62575347307239e-09
120,35.4604,51.0564,6298.256,186.609232491778,0.288618208367293,275.35,4.05460718620279e-10,9.05461329585303e-10,1.50237292444662e-09
124,35.4625,51.053,6361.232,190.496924835356,0.294738148426821,275.15,3.79444301179024e-10,8.47804852922843e-10,1.40802563872147e-09
128,35.4646,51.0493,6403.216,196.328463350724,0.303871203263542,274.95,3.62154491520947e-10,8.09487884014263e-10,1.34532484220217e-09
132,35.4666,51.0457,6434.048,202.160001866092,0.312897080588202,274.95,3.49485037834009e-10,7.81410344252881e-10,1.29937951158554e-09
136,35.4688,51.0423,6473.08,206.047694209671,0.319088459550424,274.65,3.33479755050018e-10,7.45940054654007e-10,1.24133683011821e-09
140,35.4711,51.0385,6524.248,211.879232725039,0.328119265009398,274.65,3.16291118543424e-10,7.07826669386961e-10,1.17847803902115e-09
144,35.4735,51.0346,6574.104,215.766925068618,0.334322441953041,274.35,3.07321748085602e-10,6.87886525598132e-10,1.14435590371421e-09
148,35.4761,51.0308,6621.008,221.598463583986,0.343358183627448,274.35,2.98906865273435e-10,6.69179064695299e-10,1.11234330620277e-09
152,35.4788,51.027,6664.96,227.430002099354,0.352522442419658,274.15,2.9104218552724e-10,6.51694765018185e-10,1.08242392783237e-09
156,35.4814,51.0231,6732.2,233.261540614722,0.361693436153479,273.95,2.79048958900956e-10,6.25032087352504e-10,1.03679860605492e-09
160,35.4841,51.0188,6822.072,237.149232958301,0.367923169827806,273.65,2.63091810021627e-10,5.89556976269241e-10,9.76093826609269e-10
164,35.487,51.015,6921.128,242.980771473669,0.377177265582888,273.35,2.45600521490181e-10,5.5067116395156e-10,9.09553246217061e-10
168,35.49,51.0106,6996.896,248.812309989037,0.386370892406691,273.15,2.32289738551584e-10,5.210791979409e-10,8.5891650408802e-10
172,35.4929,51.0063,7066.104,254.643848504405,0.395426460197473,273.15,2.20183151110937e-10,4.94164304200491e-10,8.12860983064443e-10
176,35.496,51.0023,7133.016,262.419233191562,0.407649818191135,272.95,2.08525177919728e-10,4.6824671216803e-10,7.68512279578878e-10
180,35.4991,50.9977,7219.936,268.25077170693,0.416708703039827,272.95,1.93450202139289e-10,4.34732502324463e-10,7.11165091665538e-10
184,35.5021,50.993,7339.984,270.19461787872,0.419959183846177,272.65,1.72757810777004e-10,3.88729721531622e-10,6.32449101761096e-10
188,35.5054,50.9884,7490.864,274.082310222298,0.426236322989613,272.35,1.46961802286052e-10,3.31380530944427e-10,5.34319394112563e-10
192,35.5087,50.9839,7662.736,274.082310222298,0.426236322989613,272.35,1.2118552654716e-10,2.73970806611009e-10,4.36159692292353e-10
196,35.5118,50.9795,7841.824,274.082310222298,0.426549674491587,271.95,1.12877902192676e-10,2.54820889653952e-10,4.03865188671463e-10
200,35.5152,50.9748,8016.648,276.026156394088,0.429811987154117,271.65,1.04848955365492e-10,2.36313662593187e-10,3.72656011773702e-10
204,35.5183,50.97,8186.552,277.970002565877,0.433237725253598,271.15,9.71225250619534e-11,2.18504051473515e-10,3.42624667542339e-10
208,35.5214,50.9656,8359.736,277.970002565877,0.433397591578321,270.95,8.93246037975929e-11,2.00529955541354e-10,3.12317423138852e-10
212,35.5248,50.9609,8534.56,279.913848737666,0.436670154869623,270.65,8.15323663309142e-11,1.82569274650635e-10,2.82034309898228e-10
216,35.5281,50.956,8706.432,281.857694909456,0.439946481824863,270.35,7.39495952264226e-11,1.6509171290364e-10,2.52567268571322e-10
220,35.5312,50.9512,8891.424,283.801541081245,0.443308668557766,269.95,6.67717223934567e-11,1.48486230070192e-10,2.24310055935169e-10
224,35.5344,50.9467,9089.536,285.745387253034,0.446345029301312,269.95,6.4437015664417e-11,1.42679612980033e-10,2.12708010634118e-10
228,35.5379,50.9417,9305.36,285.745387253034,0.44684188848591,269.35,6.19204230726803e-11,1.36422117084075e-10,2.00211198298101e-10
232,35.5411,50.9369,9537.256,285.745387253034,0.44700787730608,269.15,5.92476242887863e-11,1.29777961815187e-10,1.86949382644521e-10
236,35.5444,50.9324,9769.152,285.745387253034,0.447174051243904,268.95,5.66071451310807e-11,1.23215978451571e-10,1.73859122345509e-10
240,35.5475,50.9278,9983.008,285.745387253034,0.4476736872112,268.35,5.42007241095645e-11,1.17237306589979e-10,1.61939254758461e-10
244,35.5507,50.923,10182.104,285.745387253034,0.447840605072037,268.15,5.19850969683536e-11,1.11734088932361e-10,1.50973221856787e-10
248,35.554,50.9185,10365.128,289.633079596613,0.45435747601643,267.65,4.78864736987044e-11,1.02874748674092e-10,1.38904957959471e-10
252,35.5573,50.9136,10513.056,291.576925768402,0.457834698053605,267.15,4.4524844151596e-11,9.56335681401747e-11,1.2916292805492e-10
256,35.5605,50.9089,10617.032,295.464618111981,0.46393916069432,267.15,4.21793771131094e-11,9.05812783346743e-11,1.22365742114514e-10
260,35.5639,50.9041,10694.768,301.296156627349,0.473273044120277,266.95,4.04351903297712e-11,8.68241894374292e-11,1.17311070323704e-10
264,35.5674,50.899,10762.008,305.183848970928,0.479649385258298,266.65,3.89329679404373e-11,8.35883098263884e-11,1.12957612671343e-10
268,35.5706,50.894,10830.888,309.071541314507,0.485759568509996,266.65,3.7400321591599e-11,8.02868976846316e-11,1.08515984838088e-10
272,35.5742,50.8888,10901.736,312.959233658085,0.492146679484728,266.35,3.5830448005241e-11,7.69052985475168e-11,1.03966470745335e-10
276,35.578,50.8835,10982.752,316.846926001664,0.498260302832365,266.35,3.40434248097773e-11,7.30559498831809e-11,9.87876526723865e-11
280,35.5815,50.8782,11076.888,320.734618345243,0.504373926180001,266.35,3.19779356342895e-11,6.86067743534584e-11,9.28018341818343e-11
284,35.5851,50.8731,11183.816,324.622310688821,0.51067931796022,266.15,2.96460228428562e-11,6.35837138892808e-11,8.6043913273321e-11
288,35.5888,50.8674,11313.704,326.566156860611,0.513930412269846,265.95,2.68337840640925e-11,5.75260150474501e-11,7.78939958725137e-11
292,35.5926,50.8619,11463.6,330.453849204189,0.52063625722327,265.35,2.36161492476914e-11,5.05950852457754e-11,6.85692280985971e-11
296,35.5964,50.8567,11643.672,330.453849204189,0.520832575577617,265.15,2.01708175460857e-11,4.3170588419368e-11,5.85852190682754e-11
300,35.6,50.8512,11839.488,332.397695375979,0.524093993333165,264.95,1.88897616430362e-11,4.0388006591209e-11,5.4877411948964e-11
304,35.6038,50.8456,12054.656,332.397695375979,0.524887024228719,264.15,1.74985218573045e-11,3.73661500118404e-11,5.08506778844854e-11
308,35.6077,50.8404,12270.48,332.397695375979,0.525384500431967,263.65,1.61203119753903e-11,3.43726544346814e-11,4.68616380878077e-11
312,35.6112,50.8349,12478.432,334.341541547768,0.528958735296565,263.15,1.4808734047107e-11,3.15239414597433e-11,4.30654372977186e-11
316,35.6148,50.8294,12680.48,334.341541547768,0.529461978427508,262.65,1.35497748663751e-11,2.87895691384195e-11,3.94215178038274e-11
320,35.6187,50.824,12890.4,338.229233891347,0.536129063660583,262.15,1.22578228350653e-11,2.59835958036649e-11,3.56820859534985e-11
324,35.6225,50.8186,13108.192,338.229233891347,0.536641077017328,261.65,1.09347189412543e-11,2.31100265097218e-11,3.18524682027373e-11
328,35.6261,50.8133,13349.272,336.285387719557,0.534067464955636,261.15,1.06331514486572e-11,2.44132221036829e-11,6.07627674056193e-11
332,35.63,50.808,13587.072,336.285387719557,0.534579465327229,260.65,1.65287113758161e-11,3.79985394464212e-11,8.83118130736748e-11
336,35.6336,50.8025,13797.976,336.285387719557,0.535092941063056,260.15,2.1681501263021e-11,4.98722778200065e-11,1.12388947086434e-10
340,35.6372,50.7972,13988.872,336.285387719557,0.535607899262362,259.65,2.6283888893397e-11,6.0477713707629e-11,1.33893376343179e-10
344,35.6409,50.792,14163.04,336.285387719557,0.535917588735629,259.35,3.04319371392438e-11,7.00362060392505e-11,1.53274193909553e-10
348,35.6446,50.7862,14314.904,336.285387719557,0.536124347072308,259.15,3.40090417408963e-11,7.82790576556157e-11,1.69986828315032e-10
352,35.6484,50.7807,14450.696,338.229233891347,0.539744270253064,258.65,3.71762214706757e-11,8.55773082597386e-11,1.84783786565555e-10
356,35.6524,50.7755,14581.896,340.173080063136,0.543161338086109,258.35,4.02081805936727e-11,9.25639683251287e-11,1.98948581028259e-10
360,35.6558,50.7697,14717.688,342.116926234925,0.546476683829222,258.15,4.33171562484973e-11,9.97281040563635e-11,2.13472747315532e-10
364,35.6597,50.764,14857.744,342.116926234925,0.547006677828125,257.65,4.71912081089571e-11,1.08656566441927e-10,2.30245439922192e-10
368,35.6635,50.7586,15004.688,342.116926234925,0.547006677828125,257.65,5.16110009617187e-11,1.18843407858108e-10,2.48766121202704e-10
372,35.6673,50.7529,15157.536,344.060772406715,0.550649229445231,257.15,5.61619471382273e-11,1.29332539708266e-10,2.67834861714056e-10
376,35.6711,50.7474,15314.648,344.060772406715,0.550649229445231,257.15,6.07905096019101e-11,1.40000569056244e-10,2.87227181823347e-10
380,35.6752,50.7419,15469.464,344.060772406715,0.550863489853902,256.95,6.5302502203324e-11,1.50399930795847e-10,3.0612946739816e-10
384,35.679,50.7361,15614.44,344.060772406715,0.551185349939707,256.65,6.94836790979262e-11,1.60036824700348e-10,3.23644359529989e-10
388,35.6827,50.7304,15734.488,346.004618578504,0.554623637992353,256.35,7.29136849116466e-11,1.67942402172931e-10,3.38011502051817e-10
392,35.6867,50.7247,15815.504,349.892310922083,0.561074277371071,256.15,7.52119657732437e-11,1.73239548903418e-10,3.4763765805936e-10
396,35.6906,50.7187,15871.264,353.780003265662,0.567308436008527,256.15,7.67860511819197e-11,1.76867549129584e-10,3.54230313212727e-10
400,35.6946,50.7127,15925.384,357.66769560924,0.573766634730562,255.95,7.8307814736357e-11,1.80374957063971e-10,3.60603620745653e-10
404,35.6987,50.7072,15981.472,363.499234124608,0.583121525514212,255.95,7.98786521838999e-11,1.83995472782896e-10,3.67182234888509e-10
408,35.703,50.7009,16046.416,367.386926468187,0.589703817778455,255.65,8.16895525089626e-11,1.88169293955662e-10,3.74765943287581e-10
412,35.7071,50.6947,16138.256,371.274618811766,0.596294041897043,255.35,8.42358324912156e-11,1.94038043520397e-10,3.85428765795358e-10
416,35.7112,50.6889,16266.176,373.218464983555,0.599416000231583,255.35,8.77539538724169e-11,2.02146728458164e-10,4.00160264114634e-10
420,35.7154,50.6825,16419.352,373.218464983555,0.599650881118431,255.15,9.19230530277774e-11,2.11755814293291e-10,4.17616047107709e-10
424,35.7196,50.6762,16579.088,375.162311155344,0.603010444785417,254.95,9.31472855398883e-11,2.14583074376432e-10,4.20516096273816e-10
428,35.7238,50.6703,16735.216,377.106157327134,0.60649178610824,254.65,9.21559854227622e-11,2.12307675946429e-10,4.12639738756617e-10
432,35.7279,50.664,16892,377.106157327134,0.6070880813915,254.15,9.11658407123117e-11,2.10034889680745e-10,4.04789006035352e-10
436,35.7322,50.6578,17044.192,379.050003498923,0.610818541729059,253.65,9.02097957930423e-11,2.07840337886568e-10,3.97224493064238e-10
440,35.7366,50.6516,17204.912,380.993849670712,0.614314336633977,253.35,8.92056334943172e-11,2.05535293769481e-10,3.89296299367054e-10
444,35.7409,50.6454,17364.976,380.993849670712,0.61455695683958,253.15,8.82111383087632e-11,2.03252397952839e-10,3.81461920909315e-10
448,35.745,50.6392,17525.04,380.993849670712,0.614799864737144,252.95,8.72222002272446e-11,2.00982216040224e-10,3.73688872041357e-10
452,35.7495,50.6332,17684.776,382.937695842502,0.618303363002343,252.65,8.62408286926286e-11,1.98729360990822e-10,3.6599289275769e-10
456,35.7536,50.6267,17839.92,382.937695842502,0.618670781097363,252.35,8.52929670622642e-11,1.96553390831245e-10,3.5857662308451e-10
460,35.7578,50.6204,17994.736,382.937695842502,0.619161692328025,251.95,7.54833269245871e-11,1.7357114687322e-10,3.10383809089808e-10
464,35.762,50.6144,18148.896,384.881542014291,0.62304695704873,251.35,7.25499904668807e-11,1.66842548983505e-10,2.95774416399773e-10
468,35.7663,50.6078,18297.808,384.881542014291,0.623543310010981,250.95,6.97418109228748e-11,1.60401018669341e-10,2.81791772315468e-10
472,35.7706,50.6015,18448.688,388.76923435787,0.630218539598282,250.65,6.59383720784676e-11,1.51707559862803e-10,2.66077942672336e-10
476,35.7749,50.5955,18600.552,388.76923435787,0.630848065816171,250.15,6.21259243083873e-11,1.42993900341434e-10,2.50372765547373e-10
480,35.7792,50.5891,18754.712,388.76923435787,0.631479482314753,249.65,5.82914836129573e-11,1.34229923285673e-10,2.34577272376701e-10
484,35.7835,50.5826,18916.416,386.82538818608,0.628952234580062,249.15,5.43079934461522e-11,1.25125223923179e-10,2.18168097629647e-10
488,35.788,50.5764,19063.36,388.76923435787,0.632748024136268,248.65,5.07223773094858e-11,1.16929858982667e-10,2.03398160658213e-10
492,35.7923,50.5699,19214.568,388.76923435787,0.633130079936886,248.35,4.70667789563801e-11,1.0857449105645e-10,1.88340229520676e-10
496,35.7965,50.5637,19360.528,388.76923435787,0.633640565873428,247.95,4.35708299035658e-11,1.00583974741425e-10,1.73940186475758e-10
500,35.8008,50.5572,19508.456,390.713080529659,0.63719436290628,247.65,4.00605936033629e-11,9.25607536007773e-11,1.59481566327336e-10
504,35.8053,50.5508,19652.448,394.600772873238,0.644446035671188,246.95,3.66755170421396e-11,8.48235575908725e-11,1.45538744035079e-10
508,35.8096,50.5445,19803.328,394.600772873238,0.644837835911458,246.65,3.316212884069e-11,7.6793031176374e-11,1.31067702418536e-10
512,35.8141,50.5381,19957.16,392.656926701449,0.642051876984976,246.35,2.96154187642005e-11,6.86862866505634e-11,1.16459716498659e-10
516,35.8183,50.5316,20104.104,394.600772873238,0.645754822631976,245.95,2.62609120177198e-11,6.10188109270148e-11,1.02643654950107e-10
520,35.8226,50.5251,20252.032,400.432311388606,0.654367459102268,246.65,2.35023249240416e-11,5.46960744527333e-11,9.14602668218223e-11
524,35.8271,50.5189,20412.096,404.320003732185,0.661122724816213,246.35,2.19791482163415e-11,5.11534945174699e-11,8.5813511257695e-11
528,35.8316,50.5122,20590.2,402.376157560395,0.658881016593546,245.65,2.0301814642559e-11,4.72523767129241e-11,7.95949744665314e-11
532,35.8357,50.5059,20788.968,402.376157560395,0.659552590528552,245.15,1.84516547053331e-11,4.29492989926168e-11,7.27353410739744e-11
536,35.8401,50.4995,20992,400.432311388606,0.656634250772093,244.95,1.65855251511669e-11,3.86090761551086e-11,6.58161009804598e-11
540,35.8443,50.4932,21167.808,402.376157560395,0.659821795678753,244.95,1.49889857523344e-11,3.4895860387933e-11,5.9896118974792e-11
544,35.8487,50.4866,21325.904,404.320003732185,0.66382284928477,244.35,1.35686410182496e-11,3.15924343372414e-11,5.46292043946795e-11
548,35.8532,50.4805,21474.816,404.320003732185,0.664094685024782,244.15,1.22440989924699e-11,2.85118235811279e-11,4.97173138530446e-11
552,35.8577,50.4741,21622.744,404.320003732185,0.664366854989087,243.95,1.09410773109208e-11,2.54812628962474e-11,4.48850045482461e-11
556,35.8618,50.4676,21768.704,404.320003732185,0.664775738106052,243.65,9.66786344850579e-12,2.25200273003448e-11,4.01630176581866e-11
560,35.8662,50.4611,21912.696,404.320003732185,0.6651853770921,243.35,8.42395626918723e-12,1.96269513252226e-11,3.55495035829793e-11
564,35.8705,50.4547,22050.784,404.320003732185,0.665458890827792,243.15,7.24237804242699e-12,1.68788382184994e-11,3.11669559750866e-11
568,35.8748,50.4484,22178.704,408.207696075763,0.672134018602428,242.95,6.15769854032645e-12,1.43560905917119e-11,2.71436312479199e-11
572,35.8793,50.442,22308.592,408.207696075763,0.672549386250644,242.65,5.89620488952816e-12,1.3722299439199e-11,2.62890975302647e-11
576,35.8838,50.4353,22438.48,410.151542247553,0.676449301088026,242.15,5.82297759741692e-12,1.35208578136141e-11,2.61576343997423e-11
580,35.8879,50.4288,22570.336,410.151542247553,0.677148762862205,241.65,5.74906695030113e-12,1.33176343455649e-11,2.60243282532724e-11
584,35.8922,50.4226,22705.472,410.151542247553,0.677569482854868,241.35,5.67376323692257e-12,1.3110683573647e-11,2.58878616445962e-11
588,35.8968,50.4159,22839.296,412.095388419342,0.680780712631432,241.35,5.59963506124863e-12,1.29070668392492e-11,2.57528751906271e-11
592,35.9011,50.4094,22969.512,412.095388419342,0.681062960036855,241.15,5.52792998004443e-12,1.2710205279712e-11,2.56216763650899e-11
